freq,psd_x,psd_y,psd_z,psd_xyz
0.0,5.169e+02,1.522e+01,1.422e+01,5.463e+02
1.6,3.058e+02,3.798e+01,3.319e+01,3.770e+02
3.1,3.796e+01,4.083e+01,3.176e+01,1.105e+02
4.7,3.864e+02,3.914e+01,2.864e+01,4.542e+02
6.2,1.311e+03,4.055e+01,3.028e+01,1.382e+03
7.8,2.188e+03,4.096e+01,3.311e+01,2.262e+03
9.3,3.360e+03,4.610e+01,3.516e+01,3.441e+03
10.9,4.861e+03,7.867e+01,3.409e+01,4.974e+03
12.4,5.800e+03,1.174e+02,3.738e+01,5.955e+03
14.0,5.205e+03,8.990e+01,3.990e+01,5.335e+03
15.5,6.408e+03,4.754e+01,3.589e+01,6.492e+03
17.1,8.615e+03,4.649e+01,3.608e+01,8.698e+03
18.7,1.109e+04,5.141e+01,3.909e+01,1.118e+04
20.2,1.368e+04,5.261e+01,4.371e+01,1.377e+04
21.8,1.646e+04,5.285e+01,5.014e+01,1.656e+04
23.3,1.964e+04,5.061e+01,6.264e+01,1.975e+04
24.9,2.318e+04,4.865e+01,7.522e+01,2.330e+04
26.4,2.691e+04,4.360e+01,6.089e+01,2.702e+04
28.0,3.129e+04,4.181e+01,5.866e+01,3.139e+04
29.5,3.614e+04,4.391e+01,7.237e+01,3.625e+04
31.1,4.214e+04,4.764e+01,8.180e+01,4.227e+04
32.7,4.954e+04,4.846e+01,7.716e+01,4.967e+04
34.2,5.888e+04,5.659e+01,7.967e+01,5.901e+04
35.8,7.058e+04,1.240e+02,1.387e+02,7.085e+04
37.3,8.500e+04,2.428e+02,2.386e+02,8.548e+04
38.9,1.007e+05,4.544e+02,3.596e+02,1.015e+05
40.4,1.218e+05,7.656e+02,5.223e+02,1.231e+05
42.0,1.540e+05,1.117e+03,7.408e+02,1.558e+05
43.5,1.917e+05,1.807e+03,1.004e+03,1.946e+05
45.1,2.285e+05,3.487e+03,1.321e+03,2.333e+05
46.6,2.752e+05,5.410e+03,1.634e+03,2.822e+05
48.2,3.275e+05,6.563e+03,1.877e+03,3.359e+05
49.8,3.784e+05,6.484e+03,1.977e+03,3.869e+05
51.3,4.818e+05,6.733e+03,2.192e+03,4.907e+05
52.9,6.589e+05,8.366e+03,2.414e+03,6.697e+05
54.4,8.590e+05,1.106e+04,2.668e+03,8.727e+05
56.0,1.118e+06,1.455e+04,3.687e+03,1.136e+06
57.5,1.298e+06,1.810e+04,4.649e+03,1.321e+06
59.1,1.513e+06,2.047e+04,4.141e+03,1.538e+06
60.6,1.634e+06,1.747e+04,2.985e+03,1.654e+06
62.2,1.497e+06,1.105e+04,1.483e+03,1.510e+06
63.8,1.252e+06,6.895e+03,6.797e+02,1.259e+06
65.3,9.819e+05,6.381e+03,1.067e+03,9.893e+05
66.9,7.169e+05,6.412e+03,1.810e+03,7.251e+05
68.4,4.943e+05,5.114e+03,1.605e+03,5.011e+05
70.0,3.958e+05,4.121e+03,1.536e+03,4.015e+05
71.5,3.640e+05,4.602e+03,2.018e+03,3.706e+05
73.1,3.635e+05,6.622e+03,2.912e+03,3.730e+05
74.6,3.128e+05,8.234e+03,3.890e+03,3.249e+05
76.2,2.344e+05,9.174e+03,5.034e+03,2.486e+05
77.7,1.820e+05,9.630e+03,5.785e+03,1.974e+05
79.3,1.518e+05,8.707e+03,5.131e+03,1.656e+05
80.9,1.336e+05,7.257e+03,3.687e+03,1.445e+05
82.4,1.203e+05,5.738e+03,2.547e+03,1.286e+05
84.0,1.118e+05,5.197e+03,1.919e+03,1.189e+05
85.5,1.066e+05,5.024e+03,1.710e+03,1.133e+05
87.1,1.038e+05,4.790e+03,1.700e+03,1.103e+05
88.6,1.027e+05,4.858e+03,1.749e+03,1.093e+05
90.2,1.054e+05,5.546e+03,2.188e+03,1.131e+05
91.7,1.138e+05,6.498e+03,3.174e+03,1.234e+05
93.3,1.245e+05,7.141e+03,4.786e+03,1.364e+05
94.9,1.365e+05,7.406e+03,7.444e+03,1.514e+05
96.4,1.603e+05,8.650e+03,1.354e+04,1.825e+05
98.0,1.675e+05,8.989e+03,2.339e+04,1.999e+05
99.5,1.567e+05,7.750e+03,3.503e+04,1.995e+05
101.1,1.471e+05,6.081e+03,4.390e+04,1.971e+05
102.6,1.400e+05,4.999e+03,5.514e+04,2.001e+05
104.2,1.450e+05,3.971e+03,6.738e+04,2.164e+05
105.7,1.612e+05,3.051e+03,7.727e+04,2.416e+05
107.3,1.880e+05,2.408e+03,7.834e+04,2.687e+05
108.8,2.022e+05,3.445e+03,6.352e+04,2.691e+05
110.4,2.048e+05,5.554e+03,4.717e+04,2.575e+05
112.0,2.007e+05,7.289e+03,3.407e+04,2.421e+05
113.5,2.020e+05,8.737e+03,2.743e+04,2.382e+05
115.1,2.053e+05,1.013e+04,2.318e+04,2.386e+05
116.6,2.019e+05,1.159e+04,1.950e+04,2.330e+05
118.2,1.736e+05,1.147e+04,1.340e+04,1.985e+05
119.7,1.425e+05,1.014e+04,1.262e+04,1.653e+05
121.3,1.523e+05,1.319e+04,1.230e+04,1.778e+05
122.8,1.785e+05,1.858e+04,5.609e+03,2.027e+05
124.4,1.992e+05,2.215e+04,2.341e+03,2.237e+05
126.0,2.063e+05,2.390e+04,1.725e+03,2.319e+05
127.5,2.060e+05,2.497e+04,2.706e+03,2.337e+05
129.1,1.996e+05,2.419e+04,4.078e+03,2.279e+05
130.6,1.951e+05,2.221e+04,5.757e+03,2.230e+05
132.2,1.772e+05,1.734e+04,6.998e+03,2.015e+05
133.7,6.791e+04,6.084e+03,2.932e+03,7.693e+04
135.3,1.458e+04,1.272e+03,8.450e+02,1.669e+04
136.8,1.382e+04,8.313e+02,1.079e+03,1.573e+04
138.4,1.487e+04,5.662e+02,1.289e+03,1.672e+04
139.9,1.649e+04,4.565e+02,1.411e+03,1.836e+04
141.5,1.732e+04,4.343e+02,1.423e+03,1.918e+04
143.1,1.799e+04,4.523e+02,1.271e+03,1.972e+04
144.6,1.829e+04,5.192e+02,1.055e+03,1.986e+04
146.2,2.010e+04,6.488e+02,9.906e+02,2.174e+04
147.7,2.304e+04,7.956e+02,9.226e+02,2.476e+04
149.3,2.698e+04,8.950e+02,8.449e+02,2.872e+04
150.8,3.161e+04,1.010e+03,8.247e+02,3.345e+04
152.4,3.760e+04,1.315e+03,8.555e+02,3.977e+04
153.9,4.558e+04,1.752e+03,1.113e+03,4.845e+04
155.5,5.533e+04,2.407e+03,1.724e+03,5.947e+04
157.1,6.744e+04,3.309e+03,2.943e+03,7.370e+04
158.6,8.367e+04,4.932e+03,5.184e+03,9.378e+04
160.2,1.007e+05,6.775e+03,8.061e+03,1.156e+05
161.7,1.184e+05,8.396e+03,1.077e+04,1.376e+05
163.3,1.327e+05,9.364e+03,1.313e+04,1.551e+05
164.8,1.494e+05,1.057e+04,1.661e+04,1.766e+05
166.4,1.767e+05,1.240e+04,2.138e+04,2.105e+05
167.9,1.986e+05,1.325e+04,2.481e+04,2.366e+05
169.5,2.042e+05,1.282e+04,2.603e+04,2.431e+05
171.0,1.978e+05,1.154e+04,2.515e+04,2.345e+05
172.6,2.005e+05,1.080e+04,2.458e+04,2.359e+05
174.2,1.898e+05,9.365e+03,2.268e+04,2.219e+05
175.7,1.792e+05,7.973e+03,2.119e+04,2.084e+05
177.3,1.706e+05,6.774e+03,2.026e+04,1.977e+05
178.8,1.550e+05,5.506e+03,1.866e+04,1.792e+05
180.4,1.330e+05,4.309e+03,1.597e+04,1.532e+05
181.9,1.123e+05,3.444e+03,1.321e+04,1.289e+05
183.5,9.387e+04,2.880e+03,1.070e+04,1.074e+05
185.0,7.974e+04,2.600e+03,8.798e+03,9.114e+04
186.6,6.814e+04,2.449e+03,7.454e+03,7.805e+04
188.2,5.902e+04,2.336e+03,6.533e+03,6.789e+04
189.7,5.282e+04,2.247e+03,5.971e+03,6.104e+04
191.3,4.910e+04,2.236e+03,5.810e+03,5.715e+04
192.8,4.477e+04,2.219e+03,5.680e+03,5.266e+04
194.4,4.205e+04,2.195e+03,5.493e+03,4.974e+04
195.9,4.002e+04,2.103e+03,5.109e+03,4.723e+04
197.5,3.715e+04,1.867e+03,4.552e+03,4.357e+04
199.0,3.685e+04,1.673e+03,4.097e+03,4.262e+04
